,m_a [eV],G_ap[GeV^-1]
0,1e-20,6.506992133316138e-08
1,0.00010362294968010665,6.506992133316138e-08
2,0.00016993923662890424,6.506992133316138e-08
3,0.00026327029175128667,6.54225849107397e-08
4,0.000357538677472824,6.577715984146544e-08
5,0.0003978239095082695,6.64920852548307e-08
6,0.0004166617337949384,6.667202745801605e-08
7,0.00043175717874658856,6.685245662436947e-08
8,0.0004434365943288571,6.739667909857342e-08
9,0.00047025546196258124,6.812920690579594e-08
10,0.0004942790226787216,6.849845108732729e-08
11,0.000506747184788119,6.886969648495636e-08
12,0.0005176842056133457,6.943034060353098e-08
13,0.0005297991812981871,6.980663662184573e-08
14,0.0005421976746840766,7.03749080424708e-08
15,0.0005538998161807055,7.075632339281265e-08
16,0.0005658545226033777,7.1332325881379e-08
17,0.0005801281728989527,7.210762984235822e-08
18,0.0005958211557972083,7.308862055414442e-08
19,0.0006130285204780616,7.40829571875577e-08
20,0.0006329815267705857,7.529403358130587e-08
21,0.0006617759402060635,7.777590449214981e-08
22,0.0006881965946745889,8.033958378707314e-08
23,0.0007068129244709817,8.209548044720445e-08
24,0.000724642242971212,8.411677798918142e-08
25,0.0007416005025793135,8.688946759651724e-08
26,0.0007603073358907074,8.975355166572387e-08
27,0.0007808743253543088,9.346677909940459e-08
28,0.0008019976701700525,9.759703403970478e-08
29,0.0008222280188278764,1.0218559342401502e-07
30,0.0008399739979570261,1.0786085281430494e-07
31,0.0008550545407063043,1.1202005321603485e-07
32,0.000876623246107003,1.1888234712563643e-07
33,0.000887610775105951,1.2380067274656998e-07
34,0.0008987360209565089,1.28922476238679e-07
35,0.0009214065893777874,1.4056827777500655e-07
36,0.0009379491389023851,1.4917942201895992e-07
37,0.0009547886864601297,1.6265507027536216e-07
38,0.0009667559351350155,1.7168872838730472e-07
39,0.0009771328908905537,1.8220629628103997e-07
40,0.0009893802001219294,1.9759440716631398e-07
41,0.0009982221501849142,2.0632601516905038e-07
42,0.001003565204407482,2.1544346900318822e-07
43,0.0010161438142432704,2.336386030803092e-07
44,0.0010234022509349853,2.4795119013000296e-07
45,0.0010288800834166944,2.568173812250299e-07
46,0.0010343872363817903,2.703490716724295e-07
47,0.0010399238667702234,2.8846551130682425e-07
48,0.0010492175183898476,3.0946413816345274e-07
49,0.0010548335289051296,3.2842176056757407e-07
50,0.0010585942260515418,3.4200901888242263e-07
51,0.0010604795995114355,3.5328245178058135e-07
52,0.0010642604260536583,3.67898230960835e-07
53,0.0010680547320153333,3.862375202112817e-07
54,0.0010718625654533463,4.022166957352417e-07
55,0.0010775997851747248,4.3618563775432423e-07
56,0.0010833677137679256,4.604108396994064e-07
57,0.0010891665156043393,4.92593030524508e-07
58,0.0011028180457548688,4.7558707898074697e-07
59,0.0011186294382845461,4.616568126681944e-07
60,0.0011346675229097043,4.530053033924212e-07
61,0.001157096013202466,4.4692509567132204e-07
62,0.0011799678379228505,4.457188823695807e-07
63,0.0012032917602739167,4.517826801206389e-07
64,0.0012227174789322356,4.604108396994064e-07
65,0.0012402479011870318,4.717467536073878e-07
66,0.001246886415253508,4.846698557041708e-07
67,0.001258029661718846,4.5423123535161025e-07
68,0.0012647633539084237,4.303311824915579e-07
69,0.0012715330886587483,4.12119794103179e-07
70,0.0012783390588901582,3.957471904875207e-07
71,0.001287470387546044,3.749243627386817e-07
72,0.0012989763271967966,3.5423851177594e-07
73,0.0013082550703262972,3.410859652613862e-07
74,0.0013222976062842895,3.2842176056757407e-07
75,0.0013341147918331086,3.18802065689933e-07
76,0.0013508364850214757,3.0779595690394095e-07
77,0.0013750888397481675,3.0202782026406463e-07
78,0.0013997766111343238,3.0202782026406463e-07
79,0.0014198455767607918,3.0779595690394095e-07
80,0.0014376418130777804,3.162277660168379e-07
81,0.0014479110603430984,3.266513873364589e-07
82,0.001458253662068781,3.3924732502827847e-07
83,0.0014686701422345046,3.5232897211086376e-07
84,0.001479161028562793,3.649274839123651e-07
85,0.0014870783419364318,3.77976490882236e-07
86,0.0014950380332864003,3.9043549743407073e-07
87,0.0015003681494720244,4.054910012188696e-07
88,0.00150839897545095,4.211270572221624e-07
89,0.001513776726126469,4.397364725175804e-07
90,0.0015218793224544085,4.6920378013629876e-07
91,0.0015300252884987123,5.03359111406809e-07
92,0.0015382148563988392,5.327528989628185e-07
93,0.001546448259536785,5.66919149294284e-07
94,0.0015492025089308195,5.935730554117696e-07
95,0.0015547257325437402,6.248483795562494e-07
96,0.0015602686475778306,6.61336564844208e-07
97,0.0015630475113067807,6.961823437176289e-07
98,0.0015686200951831937,7.2694632844242e-07
99,0.0015686200951831937,7.549779579206249e-07
100,0.001571413832975574,8.099360024769173e-07
101,0.001571413832975574,8.411677798918176e-07
102,0.001571413832975574,7.840905093602724e-07
103,0.0015742125464602056,8.736038795216948e-07
104,0.0015798249359691588,9.122080421346193e-07
105,0.001599626341389683,8.595522875740663e-07
106,0.001608188453817574,8.231764886870343e-07
107,0.0016196759361175816,7.92612711183386e-07
108,0.0016370611984330952,7.673200136018394e-07
109,0.0016575799988079608,7.549779579206249e-07
110,0.001684339662402075,7.631837383153542e-07
111,0.0016963711018848757,7.819743149211599e-07
112,0.001708488483377626,8.077500532223143e-07
113,0.0017206924207743752,7.509082130764503e-07
114,0.0017268270409768409,7.191301740480397e-07
115,0.001729902547901746,6.886969648495664e-07
116,0.0017360700040900377,6.55996328108289e-07
117,0.0017453624408129771,6.231619662527849e-07
118,0.0017547046159566253,5.951793946163969e-07
119,0.0017640967957493808,5.653890821185675e-07
120,0.0017703861614208095,5.414621147410343e-07
121,0.0017798622777878987,5.284509644359136e-07
122,0.0017989669467496435,5.129722792632757e-07
123,0.001821515061442402,5.102070776215146e-07
124,0.0018443457924873527,5.227690396963798e-07
125,0.0018608284483905531,5.429274302818915e-07
126,0.0018808021912720973,5.82449418428999e-07
127,0.0018942369860753838,6.419655708082631e-07
128,0.001904376022686746,6.812920690579622e-07
129,0.0019111655124763318,7.171893020987539e-07
130,0.0019145693292042282,7.590697598189204e-07
131,0.0019179792081848398,7.969084845396931e-07
132,0.001921395160215137,8.457267102320173e-07
133,0.0019282453267088463,9.048420394721863e-07
134,0.0019351199154463371,9.680894625777777e-07
135,0.0019385663953538483,1.0081406503468073e-06
136,0.0019420190134978924,1.1446835613270286e-06
137,0.0019420190134978924,1.0555387427926425e-06
138,0.0019420190134978924,1.1021825252050112e-06
139,0.0019454777808107602,1.2148063188672955e-06
140,0.001959374561078688,1.3174019740142944e-06
141,0.001976885212718583,1.268488063850431e-06
142,0.001980406077296902,1.2246956323482836e-06
143,0.001983933212592049,1.1792238224372817e-06
144,0.00199100634002573,1.135440338541306e-06
145,0.002005228336232676,1.0903318170430363e-06
146,0.0020267520372709634,1.0583952627257697e-06
147,0.0020558101145711763,1.0903318170430363e-06
148,0.0020741825970301735,1.1385130897615393e-06
149,0.0020852848051723023,1.0815274799879904e-06
150,0.0020889987311802495,9.786115307375454e-07
151,0.002100180243721827,8.618784250652628e-07
152,0.0021076678155832504,8.143256639732104e-07
153,0.0021151820821688756,7.777590449215013e-07
154,0.002122723138650851,7.509082130764503e-07
155,0.0021378860036901956,7.308862055414443e-07
156,0.0021569919866911156,7.171893020987539e-07
157,0.0021840275599656306,7.388301350738089e-07
158,0.0021996283298121476,7.693965502793471e-07
159,0.002211401995056407,8.411677798918176e-07
160,0.002223238679671446,9.422765946709549e-07
161,0.0022351387209728654,1.0555387427926425e-06
162,0.0022391195392316454,1.1202005321603509e-06
163,0.0022431074473922134,1.1792238224372817e-06
164,0.002247102458081793,1.2753629690223989e-06
165,0.0022591302319345135,1.3682020435167426e-06
166,0.002263153779462842,1.5831808076592905e-06
167,0.002263153779462842,1.4917942201896022e-06
168,0.002271222385292192,1.6892717934905425e-06
169,0.0022874459981955743,1.61341644362231e-06
170,0.002295601210750218,1.5493189936177618e-06
171,0.0023037854983046055,1.4917942201896022e-06
172,0.002311998964517054,1.4286622765964932e-06
173,0.0023243741014819536,1.390568823403591e-06
174,0.0023409773834455632,1.3719046990910018e-06
175,0.002357699264636303,1.4171259497422575e-06
176,0.0023745405922226052,1.4717714551845079e-06
177,0.002383006314807744,1.3317206851460974e-06
178,0.002387250487645771,1.2346654512724904e-06
179,0.0023915022194243517,1.1571250131961357e-06
180,0.0024000284136775486,1.096241157510456e-06
181,0.002404302903149325,1.0555387427926425e-06
182,0.0024171721034336744,1e-06
183,0.0024257898160704784,9.473835108641285e-07
184,0.002451827735961894,9.246182075846138e-07
185,0.0024781451414327246,9.733362784074817e-07
186,0.0024914095874877637,1.041371370433455e-06
187,0.0025047450324226523,1.1446835613270286e-06
188,0.0025136749604518613,1.2213902816829689e-06
189,0.002522636725499836,1.3719046990910018e-06
190,0.0025271295823605356,1.48776799286587e-06
191,0.0025316304410720612,1.6353662227080544e-06
192,0.0025361393158858454,1.763919954449993e-06
193,0.0025406562210786867,1.9128906344201144e-06
194,0.0025451811709528297,1.9866532210078812e-06
195,0.0025725006126453395,1.8220629628104034e-06
196,0.002586270102992164,1.7308638629359407e-06
197,0.002600113295503899,1.684712590780066e-06
198,0.0026280223671177856,1.6938433344060418e-06
199,0.002646794644928032,1.7544114594471337e-06
200,0.002656231008861826,1.5831808076592905e-06
201,0.00266096179930467,1.4998793918929622e-06
202,0.00266096179930467,1.4209610041643058e-06
203,0.0026657010153619104,1.3425617576034796e-06
204,0.0026752047843709077,1.2049968607548895e-06
205,0.0026799693674152076,1.2548492322523306e-06
206,0.0026847424362590635,1.1665447633361101e-06
207,0.002708735597382013,1.132375880418575e-06
208,0.0027426866830495265,1.1920406889717757e-06
209,0.0027671976836607668,1.4998793918929622e-06
210,0.0027671976836607668,1.3645093810989371e-06
211,0.002777063309038922,2.0300733831642164e-06
212,0.0027770633090389274,1.6621004879512819e-06
213,0.0027869641073881694,1.8319381129546215e-06
214,0.002882800100936498,2.008245957432891e-06
215,0.00289307787256224,1.8220629628104034e-06
216,0.0029502641122939994,1.3498381246691793e-06
217,0.0029925628252369554,1.6003882425208101e-06
218,0.003024684367918579,1.8418667840760882e-06
219,0.003024684367918579,1.9866532210078812e-06
220,0.003112037504773233,1.9866532210078812e-06
221,0.0031679097278923336,1.5577159359822955e-06
222,0.003213328883299778,1.9866532210078812e-06
223,0.003335676503653278,1.9866532210078812e-06
224,0.0033714809567062204,1.7591592826218267e-06
225,0.0034076697272602836,1.9866532210078812e-06
226,0.0035626850741992387,1.9546986463345997e-06
227,0.0037313859335806367,1.9974204114082036e-06
