,m_a [eV],G_ap[GeV^-1]
0,1.976284874568171e-05,1.0
1,1.976284874568171e-05,4.942697427968038e-14
2,1.976289010237435e-05,3.309010560505069e-14
3,1.976293145906699e-05,2.495849957005569e-14
4,1.9762972815759634e-05,2.3938028148164643e-14
5,1.9763014172452275e-05,2.2974122551377247e-14
6,1.9763055529144922e-05,2.2027301449618728e-14
7,1.9763096885837562e-05,2.109120735967726e-14
8,1.9763138242530206e-05,2.0179045334121807e-14
9,1.9763179599222847e-05,1.9291827964264403e-14
10,1.9763220955915487e-05,1.814183686208124e-14
11,1.9763262312608135e-05,1.6689068584083882e-14
12,1.9763303669300775e-05,1.595851945445485e-14
13,1.976334502599342e-05,1.5262454380922474e-14
14,1.976338638268606e-05,1.4603947223183327e-14
15,1.97634277393787e-05,1.3991070784393567e-14
16,1.9763469096071348e-05,1.3431721143440242e-14
17,1.9763510452763988e-05,1.2928778143879734e-14
18,1.9763551809456632e-05,1.2491081904282617e-14
19,1.9763593166149273e-05,1.2123350120900415e-14
20,1.9763634522841916e-05,1.1824246746579582e-14
21,1.976367587953456e-05,1.1594811421299043e-14
22,1.9763717236227198e-05,1.1430838669686e-14
23,1.976375859291984e-05,1.1324582771639413e-14
24,1.9763799949612482e-05,1.1261781286108892e-14
25,1.9763841306305126e-05,1.1231472402797517e-14
26,1.976388266299777e-05,1.1224210178110832e-14
27,1.9763924019690414e-05,1.122992747833371e-14
28,1.9763965376383054e-05,1.1250169932996731e-14
29,1.9764006733075695e-05,1.1291413502602952e-14
30,1.976404808976834e-05,1.1361342797033444e-14
31,1.9764089446460983e-05,1.1473587540074857e-14
32,1.9764130803153627e-05,1.1642444881079961e-14
33,1.9764172159846267e-05,1.187244432343757e-14
34,1.976421351653891e-05,1.216644362652396e-14
35,1.976425487323155e-05,1.2526000699556926e-14
36,1.9764296229924196e-05,1.2951152008551428e-14
37,1.976433758661684e-05,1.3433057333700137e-14
38,1.976437894330948e-05,1.3967777187093818e-14
39,1.9764420300002124e-05,1.4556336338415317e-14
40,1.9764461656694764e-05,1.5184991712001284e-14
41,1.9764503013387412e-05,1.5849977577963345e-14
42,1.9764544370080052e-05,1.662448275409642e-14
43,1.9764585726772693e-05,1.7572604622932078e-14
44,1.9764627083465337e-05,1.8424485408158638e-14
45,1.9764668440157977e-05,1.9301903866369788e-14
46,1.9764709796850625e-05,2.0228222008632796e-14
47,1.9764751153543265e-05,2.124685527192559e-14
48,1.976479251023591e-05,2.1908337387386734e-14
49,1.9764833866928546e-05,2.0747753878916935e-14
50,1.9764875223621187e-05,2.080226798361651e-14
51,1.9764916580313834e-05,2.0669999904421854e-14
52,1.9764957937006475e-05,2.035736556746262e-14
53,1.976499929369912e-05,2.0066504594442606e-14
54,1.976504065039176e-05,2.010695992823723e-14
55,1.9765082007084406e-05,1.9391012086248085e-14
56,1.9765123363777047e-05,1.8368249081494927e-14
57,1.9765164720469687e-05,1.7386473724955352e-14
58,1.976520607716233e-05,1.6471561051608045e-14
59,1.9765247433854972e-05,1.562619225856958e-14
60,1.976528879054762e-05,1.4872843500842576e-14
61,1.976533014724026e-05,1.42290227113845e-14
62,1.9765371503932904e-05,1.3700910359448008e-14
63,1.9765412860625544e-05,1.3308058941162292e-14
64,1.9765454217318185e-05,1.3060481244519403e-14
65,1.9765495574010832e-05,1.2968060199804488e-14
66,1.9765536930703473e-05,1.3030484960939104e-14
67,1.9765578287396116e-05,1.3254481454046282e-14
68,1.9765619644088757e-05,1.3627164160251626e-14
69,1.97656610007814e-05,1.413605366672921e-14
70,1.9765702357474045e-05,1.4769247558829532e-14
71,1.9765743714166685e-05,1.5510012785684272e-14
72,1.976578507085933e-05,1.6344310830851195e-14
73,1.976582642755197e-05,1.725761950518763e-14
74,1.9765867784244614e-05,1.8245215336409516e-14
75,1.9765909140937258e-05,1.927891991125421e-14
76,1.9765950497629895e-05,2.0356930037113493e-14
77,1.976599185432254e-05,2.147647363941297e-14
78,1.976603321101518e-05,2.2636189323330665e-14
79,1.9766074567707823e-05,2.3365082359370468e-14
80,1.9766115924400467e-05,2.226824898336503e-14
81,1.976615728109311e-05,2.2405092316494273e-14
82,1.976619863778575e-05,2.2410078579777318e-14
83,1.9766239994478392e-05,2.2438250272451368e-14
84,1.9766281351171036e-05,2.320237467277963e-14
85,1.976632270786368e-05,2.2093462491591275e-14
86,1.9766364064556324e-05,2.0482379835462234e-14
87,1.9766405421248964e-05,1.761522002782739e-14
88,1.976644677794161e-05,1.6835674631935623e-14
89,1.976648813463425e-05,1.6168645936867947e-14
90,1.9766529491326893e-05,1.5520746613094593e-14
91,1.9766570848019537e-05,1.4893657114489114e-14
92,1.9766612204712177e-05,1.429150657606016e-14
93,1.976665356140482e-05,1.3720217900493042e-14
94,1.9766694918097462e-05,1.3181224816105499e-14
95,1.976673627479011e-05,1.2676720983767804e-14
96,1.976677763148275e-05,1.2209478064160028e-14
97,1.976681898817539e-05,1.177973955606509e-14
98,1.9766860344868034e-05,1.1259555165778937e-14
99,1.9766901701560675e-05,1.0907607806706044e-14
100,1.9766943058253322e-05,1.0601266462559397e-14
101,1.9766984414945962e-05,1.0338294050655507e-14
102,1.9767025771638606e-05,1.0118199902829923e-14
103,1.9767067128331247e-05,9.940618532775264e-15
104,1.9767108485023884e-05,9.809853608188147e-15
105,1.976714984171653e-05,9.728538238748896e-15
106,1.9767191198409172e-05,9.69707105854059e-15
107,1.9767232555101816e-05,9.717916401207295e-15
108,1.9767273911794456e-05,9.782960897200504e-15
109,1.97673152684871e-05,9.853009568311605e-15
110,1.9767356625179744e-05,9.944675422598303e-15
111,1.9767397981872385e-05,1.0050505277368427e-14
112,1.976743933856503e-05,1.0152405230852365e-14
113,1.976748069525767e-05,1.0237922635196393e-14
114,1.9767522051950316e-05,1.030384662493368e-14
115,1.9767563408642957e-05,1.0357369655897137e-14
116,1.97676047653356e-05,1.040772348448655e-14
117,1.976764612202824e-05,1.0464700957665323e-14
118,1.9767687478720882e-05,1.0537692678288027e-14
119,1.976772883541353e-05,1.0634944885742045e-14
120,1.976777019210617e-05,1.0745142355690777e-14
121,1.9767811548798814e-05,1.0859327447723177e-14
122,1.9767852905491454e-05,1.0843001366149898e-14
123,1.9767894262184098e-05,1.0905116540963799e-14
124,1.9767935618876742e-05,1.0955452589294708e-14
125,1.9767976975569383e-05,1.09813448716995e-14
126,1.9768018332262027e-05,1.0957630533945608e-14
127,1.9768059688954667e-05,1.0929921785826167e-14
128,1.976810104564731e-05,1.1006416072812106e-14
129,1.9768142402339955e-05,1.1067562424303172e-14
130,1.97681837590326e-05,1.1124846178665082e-14
131,1.9768225115725236e-05,1.115937944589899e-14
132,1.9768266472417877e-05,1.1184959956416368e-14
133,1.976830782911052e-05,1.1197835706784665e-14
134,1.9768349185803164e-05,1.1172671307308927e-14
135,1.976839054249581e-05,1.105969444148832e-14
136,1.976843189918845e-05,1.0909049477975255e-14
137,1.976847325588109e-05,1.0768307264232723e-14
138,1.9768514612573733e-05,1.0591041566065767e-14
139,1.9768555969266377e-05,1.0442029899518429e-14
140,1.976859732595902e-05,1.0353926729036933e-14
141,1.976863868265166e-05,1.0254399182231421e-14
142,1.9768680039344306e-05,1.0188473652471836e-14
143,1.9768721396036946e-05,1.014981538968952e-14
144,1.976876275272959e-05,1.0123579362506058e-14
145,1.9768804109422234e-05,1.0103304372259032e-14
146,1.9768845466114875e-05,1.007971769481065e-14
147,1.976888682280752e-05,1.0051179272977045e-14
148,1.976892817950016e-05,1.0003843264426525e-14
149,1.9768969536192806e-05,9.985320845917038e-15
150,1.9769010892885447e-05,9.942808037145148e-15
151,1.9769052249578087e-05,9.953171453816638e-15
152,1.976909360627073e-05,9.97566014036733e-15
153,1.9769134962963372e-05,1.0033374109973842e-14
154,1.976917631965602e-05,1.0115629084628586e-14
155,1.976921767634866e-05,1.0229413814870578e-14
156,1.9769259033041304e-05,1.0351619644089453e-14
157,1.9769300389733944e-05,1.0467801091754674e-14
158,1.976934174642658e-05,1.056556127371828e-14
159,1.976938310311923e-05,1.0612880311059054e-14
160,1.976942445981187e-05,1.0614663399097297e-14
161,1.9769465816504513e-05,1.063829035668751e-14
162,1.9769507173197154e-05,1.063643232921346e-14
163,1.9769548529889797e-05,1.070855229814981e-14
164,1.976958988658244e-05,1.0669759515799476e-14
165,1.9769631243275082e-05,1.0616516254719806e-14
166,1.9769672599967726e-05,1.0551981536363919e-14
167,1.9769713956660366e-05,1.0486563167949156e-14
168,1.976975531335301e-05,1.0413634764909804e-14
169,1.9769796670045654e-05,1.0347247604305415e-14
170,1.9769838026738298e-05,1.0290986706014926e-14
171,1.976987938343094e-05,1.0285069593004508e-14
172,1.976992074012358e-05,1.0258433126323839e-14
173,1.9769962096816227e-05,1.0247866580343952e-14
174,1.9770003453508867e-05,1.0254680369540415e-14
175,1.977004481020151e-05,1.0293096128682799e-14
176,1.977008616689415e-05,1.0326154940505557e-14
177,1.9770127523586795e-05,1.0372131335081517e-14
178,1.977016888027944e-05,1.0436214096607959e-14
179,1.977021023697208e-05,1.0525066898874441e-14
180,1.9770251593664724e-05,1.0643757632287797e-14
181,1.9770292950357364e-05,1.079903604527227e-14
182,1.9770334307050008e-05,1.0995501368223964e-14
183,1.9770375663742652e-05,1.1232100540143175e-14
184,1.9770417020435296e-05,1.1503839714443622e-14
185,1.9770458377127937e-05,1.1885574494140122e-14
186,1.9770499733820574e-05,1.2271847787437592e-14
187,1.9770541090513218e-05,1.2661623835145633e-14
188,1.977058244720586e-05,1.3082712606877179e-14
189,1.9770623803898506e-05,1.3529479473620677e-14
190,1.9770665160591146e-05,1.3992744639659955e-14
191,1.977070651728379e-05,1.4455270893342328e-14
192,1.977074787397643e-05,1.494146772965782e-14
193,1.9770789230669074e-05,1.5557796503618064e-14
194,1.977083058736172e-05,1.622309241363748e-14
195,1.977087194405436e-05,1.6740466989414295e-14
196,1.9770913300747003e-05,1.727452721678236e-14
197,1.9770954657439643e-05,1.778201362031831e-14
198,1.9770996014132287e-05,1.81531825763993e-14
199,1.977103737082493e-05,1.8664104297501244e-14
200,1.9771078727517572e-05,1.893044867405849e-14
201,1.9771120084210216e-05,1.9226880569985348e-14
202,1.9771161440902856e-05,1.9504288618929364e-14
203,1.9771202797595504e-05,2.0191785952557436e-14
204,1.9771244154288144e-05,2.1125404945607442e-14
205,1.9771285510980785e-05,2.130286525238333e-14
206,1.977132686767343e-05,2.1240119770689144e-14
207,1.977136822436607e-05,2.1212701367385137e-14
208,1.9771409581058716e-05,2.1216565856623183e-14
209,1.9771450937751357e-05,2.1183579042410087e-14
210,1.9771492294444e-05,2.1082403516881724e-14
211,1.977153365113664e-05,2.1043427417288624e-14
212,1.977157500782928e-05,2.1061734396888563e-14
213,1.9771616364521926e-05,2.1039706640136186e-14
214,1.9771657721214566e-05,2.1030877224942245e-14
215,1.977169907790721e-05,2.0976820435400692e-14
216,1.977174043459985e-05,2.0976770155264872e-14
217,1.9771781791292495e-05,2.102700569580754e-14
218,1.977182314798514e-05,2.110907758942305e-14
219,1.977186450467778e-05,2.1165754565998325e-14
220,1.9771905861370423e-05,2.1184933033956e-14
221,1.9771947218063064e-05,2.1274449760728826e-14
222,1.9771988574755708e-05,2.1380974722613535e-14
223,1.977202993144835e-05,2.1481211955350504e-14
224,1.9772071288140995e-05,2.164726355845873e-14
225,1.9772112644833636e-05,2.1666182334331252e-14
226,1.9772154001526276e-05,2.174945662802202e-14
227,1.977219535821892e-05,2.1824967868159542e-14
228,1.9772236714911564e-05,2.188696397926884e-14
229,1.9772278071604208e-05,2.190669284041719e-14
230,1.977231942829685e-05,2.1996402906502314e-14
231,1.9772360784989493e-05,2.198988409553008e-14
232,1.9772402141682137e-05,2.1980211592288674e-14
233,1.9772443498374777e-05,2.1886667689739096e-14
234,1.977248485506742e-05,2.184407515540023e-14
235,1.977252621176006e-05,2.1810535546699813e-14
236,1.9772567568452706e-05,2.183104442250845e-14
237,1.977260892514535e-05,2.1798473834325663e-14
238,1.9772650281837993e-05,2.169177979674047e-14
239,1.9772691638530634e-05,2.165610980159658e-14
240,1.977273299522327e-05,2.1685548614956418e-14
241,1.9772774351915915e-05,2.1651388599474657e-14
242,1.9772815708608556e-05,2.1619888120822313e-14
243,1.9772857065301203e-05,2.153366649751321e-14
244,1.9772898421993843e-05,2.151704839416892e-14
245,1.9772939778686487e-05,2.149087954042927e-14
246,1.9772981135379128e-05,2.1468964833148272e-14
247,1.9773022492071772e-05,2.1403146329822414e-14
248,1.9773063848764416e-05,2.1392724542909423e-14
249,1.9773105205457056e-05,2.1455914872906176e-14
250,1.97731465621497e-05,2.1462303290106693e-14
251,1.977318791884234e-05,2.1475732363192314e-14
252,1.9773229275534988e-05,2.148322835426119e-14
253,1.977327063222763e-05,2.1515877761009417e-14
254,1.977331198892027e-05,2.1563304556850113e-14
255,1.9773353345612913e-05,2.165362456585047e-14
256,1.9773394702305553e-05,2.1736461839916962e-14
257,1.97734360589982e-05,2.1808815040084215e-14
258,1.977347741569084e-05,2.187274518576323e-14
259,1.9773518772383482e-05,2.1940665890983505e-14
260,1.9773560129076126e-05,2.1995826102297635e-14
261,1.9773601485768766e-05,2.2107827604277055e-14
262,1.9773642842461414e-05,2.215066525755093e-14
263,1.9773684199154054e-05,2.2194914750827255e-14
264,1.9773725555846698e-05,2.223626727844739e-14
265,1.977376691253934e-05,2.2291383022326943e-14
266,1.977380826923198e-05,2.2423216080090623e-14
267,1.9773849625924623e-05,2.2520715305192064e-14
268,1.9773890982617264e-05,2.2650922572366077e-14
269,1.9773932339309908e-05,2.2823948716534004e-14
270,1.9773973696002548e-05,2.3056484640467195e-14
271,1.9774015052695192e-05,2.3423200385427026e-14
272,1.9774056409387836e-05,2.376003679908649e-14
273,1.9774097766080476e-05,2.416841065414667e-14
274,1.977413912277312e-05,2.4620045551175475e-14
275,1.977418047946576e-05,2.512525561040572e-14
276,1.9774221836158405e-05,2.578770227096288e-14
277,1.977426319285105e-05,2.6388934391689007e-14
278,1.9774304549543693e-05,2.7039147036746526e-14
279,1.9774345906236333e-05,2.7789952168283778e-14
280,1.9774387262928974e-05,2.863206354154965e-14
281,1.9774428619621618e-05,2.9391585979315865e-14
282,1.977446997631426e-05,3.019529388408824e-14
283,1.9774511333006906e-05,3.104961552040613e-14
284,1.9774552689699546e-05,3.195248169719475e-14
285,1.977459404639219e-05,3.2912286106422537e-14
286,1.977463540308483e-05,3.438674850630943e-14
287,1.9774676759777474e-05,3.546738058871974e-14
288,1.977471811647012e-05,3.6607409910503485e-14
289,1.977475947316276e-05,3.7781358226108525e-14
290,1.9774800829855403e-05,3.992107313068312e-14
291,1.9774842186548047e-05,4.130459318069639e-14
292,1.977488354324069e-05,4.2668685191328064e-14
293,1.977492489993333e-05,4.4038194784954085e-14
294,1.977496625662597e-05,4.5423294638310914e-14
295,1.9775007613318612e-05,3.79740060334586e-14
296,1.9775048970011253e-05,3.4125465464993156e-14
297,1.97750903267039e-05,3.302722711560682e-14
298,1.977513168339654e-05,3.182423226251459e-14
299,1.9775173040089185e-05,3.0567094681096765e-14
300,1.9775214396781825e-05,2.926692748994252e-14
301,1.9775255753474466e-05,2.796311467360803e-14
302,1.9775297110167113e-05,2.673483732312306e-14
303,1.9775338466859753e-05,2.5420065852628415e-14
304,1.9775379823552397e-05,2.418803745528617e-14
305,1.9775421180245038e-05,2.3028763995240924e-14
306,1.9775462536937685e-05,2.1965226888948255e-14
307,1.9775503893630326e-05,2.1028605741806e-14
308,1.9775545250322966e-05,2.0223981707027076e-14
309,1.977558660701561e-05,1.9584699061712667e-14
310,1.977562796370825e-05,1.91231786675488e-14
311,1.9775669320400898e-05,1.8835158129618038e-14
312,1.977571067709354e-05,1.873860607477463e-14
313,1.9775752033786183e-05,1.8863398178977306e-14
314,1.9775793390478823e-05,1.9166271235190518e-14
315,1.9775834747171464e-05,1.9650334583301607e-14
316,1.977587610386411e-05,2.029904099010907e-14
317,1.977591746055675e-05,2.1096342598639797e-14
318,1.9775958817249395e-05,2.2023697153595315e-14
319,1.9776000173942036e-05,2.3056868368204476e-14
320,1.9776041530634676e-05,2.406394808674444e-14
321,1.9776082887327324e-05,2.523202618824451e-14
322,1.977612424401996e-05,2.644122568042654e-14
323,1.9776165600712605e-05,2.7665376629933816e-14
324,1.9776206957405245e-05,2.864114683202817e-14
325,1.977624831409789e-05,2.952259617893747e-14
326,1.9776289670790533e-05,3.0428072475267986e-14
327,1.9776331027483174e-05,3.1189022171434346e-14
328,1.9776372384175818e-05,3.17449819949164e-14
329,1.9776413740868458e-05,3.1433057947332626e-14
330,1.9776455097561102e-05,3.1597377402288446e-14
331,1.9776496454253746e-05,3.4670128105800764e-14
332,1.977653781094639e-05,3.3491846080125486e-14
333,1.977657916763903e-05,3.169321015309487e-14
334,1.977662052433167e-05,3.0617033716885215e-14
335,1.9776661881024315e-05,2.948537967946546e-14
336,1.977670323771696e-05,2.8237523889832696e-14
337,1.9776744594409603e-05,2.7336893646907936e-14
338,1.9776785951102243e-05,2.6496381515410252e-14
339,1.9776827307794887e-05,2.548601881713163e-14
340,1.9776868664487528e-05,2.477979157452856e-14
341,1.977691002118017e-05,2.4149305990246074e-14
342,1.9776951377872816e-05,2.3461674676324505e-14
343,1.9776992734565456e-05,2.292136649709315e-14
344,1.97770340912581e-05,2.2478416617853223e-14
345,1.977707544795074e-05,2.2092831905289223e-14
346,1.9777116804643388e-05,2.16506308497752e-14
347,1.977715816133603e-05,2.1348198969661537e-14
348,1.977719951802867e-05,2.108214933055096e-14
349,1.977724087472131e-05,2.0765795357023488e-14
350,1.977728223141395e-05,2.0553939753175027e-14
351,1.9777323588106597e-05,2.035849048275212e-14
352,1.9777364944799238e-05,2.014173483426234e-14
353,1.9777406301491882e-05,1.9952462901013956e-14
354,1.9777447658184522e-05,1.980008597598193e-14
355,1.9777489014877163e-05,1.965950737451032e-14
356,1.977753037156981e-05,1.9531380847892488e-14
357,1.977757172826245e-05,1.940114845739947e-14
358,1.9777613084955095e-05,1.9261279978957856e-14
359,1.9777654441647735e-05,1.9168466220691033e-14
360,1.9777695798340382e-05,1.908185214217554e-14
361,1.9777737155033023e-05,1.896854404020014e-14
362,1.9777778511725664e-05,1.8913247035587586e-14
363,1.9777819868418307e-05,1.8866839905078898e-14
364,1.9777861225110948e-05,1.8835834803957075e-14
365,1.9777902581803595e-05,1.8825528469307887e-14
366,1.9777943938496236e-05,1.8827391136256312e-14
367,1.977798529518888e-05,1.8789486875101034e-14
368,1.977802665188152e-05,1.8812156144647474e-14
369,1.977806800857416e-05,1.8847234310955857e-14
370,1.9778109365266808e-05,1.8876304171315024e-14
371,1.977815072195945e-05,1.8935887941670036e-14
372,1.9778192078652093e-05,1.8997228694909602e-14
373,1.9778233435344733e-05,1.9066418190206332e-14
374,1.9778274792037377e-05,1.913952402849451e-14
375,1.977831614873002e-05,1.918452728156986e-14
376,1.9778357505422658e-05,1.9310172899349735e-14
377,1.9778398862115302e-05,1.939742104831189e-14
378,1.9778440218807943e-05,1.9458450809165606e-14
379,1.9778481575500587e-05,1.9529316102259238e-14
380,1.977852293219323e-05,1.9612578665251142e-14
381,1.977856428888587e-05,1.9741236902693346e-14
382,1.9778605645578515e-05,1.981557637379688e-14
383,1.9778647002271155e-05,1.989415449577849e-14
384,1.97786883589638e-05,1.9971813390824416e-14
385,1.9778729715656443e-05,2.0019202328533176e-14
386,1.9778771072349087e-05,2.007812640337054e-14
387,1.9778812429041728e-05,2.013265505606303e-14
388,1.9778853785734368e-05,2.023437163309658e-14
389,1.9778895142427012e-05,2.022890011949446e-14
390,1.9778936499119656e-05,2.024909433738795e-14
391,1.97789778558123e-05,2.0323736064816565e-14
392,1.977901921250494e-05,2.0343242847903602e-14
393,1.9779060569197584e-05,2.036717993978533e-14
394,1.9779101925890225e-05,2.043807442927333e-14
395,1.977914328258287e-05,2.0399591433316828e-14
396,1.9779184639275513e-05,2.0422533256723177e-14
397,1.9779225995968153e-05,2.050560701696217e-14
398,1.9779267352660797e-05,2.0552654529757294e-14
399,1.9779308709353438e-05,2.0563158180598315e-14
400,1.9779350066046085e-05,2.057574571117588e-14
401,1.9779391422738726e-05,2.0689095418836904e-14
402,1.9779432779431366e-05,2.0718066789776293e-14
403,1.977947413612401e-05,2.0732117212278287e-14
404,1.9779515492816647e-05,2.0842489205487934e-14
405,1.9779556849509295e-05,2.089041033437732e-14
406,1.9779598206201935e-05,2.094505737609148e-14
407,1.977963956289458e-05,2.0918440420734405e-14
