,m_a [eV],G_ap[GeV^-1]
0,1.25e-11,1.0
1,1.25e-11,3.65e-10
2,1.26e-11,3.05e-10
3,1.27e-11,3.83e-10
4,1.28e-11,2.95e-10
5,1.29e-11,4.99e-10
6,1.3e-11,5.78e-10
7,1.31e-11,4.69e-10
8,1.32e-11,5.24e-10
9,1.33e-11,1.13e-09
10,1.34e-11,9.36e-10
11,1.35e-11,5.73e-10
12,1.36e-11,3.96e-10
13,1.38e-11,4.31e-10
14,1.39e-11,2.8e-10
15,1.4e-11,1.96e-10
16,1.41e-11,1.34e-10
17,1.42e-11,1.81e-10
18,1.43e-11,2.5e-10
19,1.44e-11,1.49e-10
20,1.45e-11,2.52e-10
21,1.47e-11,3.32e-10
22,1.48e-11,3.27e-10
23,1.49e-11,3.64e-10
24,1.5e-11,1.55e-10
25,1.51e-11,3.13e-10
26,1.53e-11,3.07e-10
27,1.54e-11,3.23e-10
28,1.55e-11,2.63e-10
29,1.56e-11,1.11e-10
30,1.58e-11,2.15e-10
31,1.59e-11,2.3e-10
32,1.6e-11,9.23e-11
33,1.61e-11,7.41e-11
34,1.63e-11,7.79e-11
35,1.64e-11,1.01e-10
36,1.65e-11,1.03e-10
37,1.67e-11,1.35e-10
38,1.68e-11,1.35e-10
39,1.69e-11,6.99e-11
40,1.71e-11,7.4e-11
41,1.72e-11,6.56e-11
42,1.74e-11,1.48e-10
43,1.75e-11,9.82e-11
44,1.76e-11,7.79e-11
45,1.78e-11,8.82e-11
46,1.79e-11,7.55e-11
47,1.81e-11,4.59e-11
48,1.82e-11,4.5e-11
49,1.84e-11,4.61e-11
50,1.85e-11,5.53e-11
51,1.87e-11,5.91e-11
52,1.88e-11,5.43e-11
53,1.9e-11,9.49e-11
54,1.91e-11,4.59e-11
55,1.93e-11,4.33e-11
56,1.94e-11,4.46e-11
57,1.96e-11,4.46e-11
58,1.97e-11,4.89e-11
59,1.99e-11,4.35e-11
60,2.01e-11,4.12e-11
61,2.02e-11,4.05e-11
62,2.04e-11,4.04e-11
63,2.05e-11,4.19e-11
64,2.07e-11,4.49e-11
65,2.09e-11,6.29e-11
66,2.11e-11,4.29e-11
67,2.12e-11,4.23e-11
68,2.14e-11,4.38e-11
69,2.16e-11,5.18e-11
70,2.17e-11,6.87e-11
71,2.19e-11,5.17e-11
72,2.21e-11,4.65e-11
73,2.23e-11,4.6e-11
74,2.24e-11,7.55e-11
75,2.26e-11,5.84e-11
76,2.28e-11,4.91e-11
77,2.3e-11,5.64e-11
78,2.32e-11,6.63e-11
79,2.34e-11,5.11e-11
80,2.36e-11,6.48e-11
81,2.37e-11,6.24e-11
82,2.39e-11,6.03e-11
83,2.41e-11,6.17e-11
84,2.43e-11,8.36e-11
85,2.45e-11,7.99e-11
86,2.47e-11,6.74e-11
87,2.49e-11,7.62e-11
88,2.51e-11,8.99e-11
89,2.53e-11,9.35e-11
90,2.55e-11,7.39e-11
91,2.57e-11,5.84e-11
92,2.59e-11,6.44e-11
93,2.61e-11,9.06e-11
94,2.64e-11,7.27e-11
95,2.66e-11,8.47e-11
96,2.68e-11,6.27e-11
97,2.7e-11,7.63e-11
98,2.72e-11,6.28e-11
99,2.74e-11,6.04e-11
100,2.77e-11,5.9e-11
101,2.79e-11,5.86e-11
102,2.81e-11,5.86e-11
103,2.83e-11,5.6e-11
104,2.86e-11,6.26e-11
105,2.88e-11,6.49e-11
106,2.9e-11,8.71e-11
107,2.93e-11,7.87e-11
108,2.95e-11,9.48e-11
109,2.97e-11,1.68e-10
110,3e-11,1.35e-10
111,3.02e-11,1e-10
112,3.05e-11,6.28e-11
113,3.07e-11,9.65e-11
114,3.1e-11,1.06e-10
115,3.12e-11,8.04e-11
116,3.15e-11,9.39e-11
117,3.17e-11,6.63e-11
118,3.2e-11,6.83e-11
119,3.22e-11,6.72e-11
120,3.25e-11,7.77e-11
121,3.27e-11,5.67e-11
122,3.3e-11,5.34e-11
123,3.33e-11,5.2e-11
124,3.35e-11,5e-11
125,3.38e-11,5.11e-11
126,3.41e-11,6.26e-11
127,3.44e-11,5.46e-11
128,3.46e-11,5.31e-11
129,3.49e-11,5.29e-11
130,3.52e-11,5.22e-11
131,3.55e-11,5.12e-11
132,3.58e-11,5.36e-11
133,3.61e-11,6.28e-11
134,3.63e-11,5.03e-11
135,3.66e-11,4.95e-11
136,3.69e-11,5.18e-11
137,3.72e-11,6.71e-11
138,3.75e-11,6.47e-11
139,3.78e-11,5.24e-11
140,3.81e-11,4.9e-11
141,3.85e-11,5.02e-11
142,3.88e-11,5.06e-11
143,3.91e-11,4.88e-11
144,3.94e-11,4.82e-11
145,3.97e-11,5.04e-11
146,4e-11,5.03e-11
147,4.03e-11,5.4e-11
148,4.07e-11,4.87e-11
149,4.1e-11,4.92e-11
150,4.13e-11,4.81e-11
151,4.17e-11,4.75e-11
152,4.2e-11,4.73e-11
153,4.23e-11,4.65e-11
154,4.27e-11,4.56e-11
155,4.3e-11,4.66e-11
156,4.34e-11,4.65e-11
157,4.37e-11,4.77e-11
158,4.41e-11,4.72e-11
159,4.44e-11,4.62e-11
160,4.48e-11,4.67e-11
161,4.52e-11,4.7e-11
162,4.59e-11,4.69e-11
163,4.63e-11,4.6e-11
164,4.66e-11,4.61e-11
165,4.7e-11,4.84e-11
166,4.74e-11,4.93e-11
167,4.78e-11,4.68e-11
168,4.82e-11,4.68e-11
169,4.85e-11,4.7e-11
170,4.89e-11,4.78e-11
171,4.93e-11,4.78e-11
172,4.97e-11,4.72e-11
173,5.01e-11,4.76e-11
174,5.05e-11,4.73e-11
175,5.13e-11,4.66e-11
176,5.18e-11,4.68e-11
177,5.22e-11,4.7e-11
178,5.26e-11,4.81e-11
179,5.3e-11,4.96e-11
180,5.35e-11,4.79e-11
181,5.39e-11,4.73e-11
182,5.43e-11,4.75e-11
183,5.48e-11,4.77e-11
184,5.52e-11,4.84e-11
185,5.56e-11,4.75e-11
186,5.61e-11,4.75e-11
187,5.65e-11,4.83e-11
188,5.7e-11,4.93e-11
189,5.75e-11,4.87e-11
190,5.79e-11,4.88e-11
191,5.89e-11,4.86e-11
192,5.93e-11,4.86e-11
193,5.98e-11,4.83e-11
194,6.03e-11,4.96e-11
195,6.08e-11,4.97e-11
196,6.13e-11,5.15e-11
197,6.18e-11,4.96e-11
198,6.23e-11,5.01e-11
199,6.28e-11,5.02e-11
200,6.33e-11,5.04e-11
201,6.38e-11,4.96e-11
202,6.43e-11,4.94e-11
203,6.48e-11,5.03e-11
204,6.53e-11,5.01e-11
205,6.59e-11,5.16e-11
206,6.64e-11,5.21e-11
207,6.69e-11,5.21e-11
208,6.75e-11,5.16e-11
209,6.8e-11,5.06e-11
210,6.86e-11,4.97e-11
211,6.91e-11,4.96e-11
212,6.97e-11,4.93e-11
213,7.02e-11,4.94e-11
214,7.08e-11,4.94e-11
215,7.14e-11,4.97e-11
216,7.2e-11,5e-11
217,7.25e-11,4.99e-11
218,7.31e-11,4.92e-11
219,7.37e-11,4.96e-11
220,7.43e-11,4.96e-11
221,7.49e-11,4.94e-11
222,7.55e-11,4.66e-11
223,7.61e-11,4.99e-11
224,7.67e-11,4.92e-11
225,7.73e-11,4.94e-11
226,7.8e-11,4.93e-11
227,7.86e-11,4.96e-11
228,7.92e-11,4.9e-11
229,7.99e-11,4.94e-11
230,8.05e-11,4.97e-11
231,8.12e-11,4.9e-11
232,8.18e-11,4.94e-11
233,8.25e-11,4.98e-11
234,8.31e-11,4.95e-11
235,8.38e-11,4.99e-11
236,8.45e-11,4.97e-11
237,8.52e-11,4.96e-11
238,8.59e-11,5e-11
239,8.66e-11,4.98e-11
240,8.73e-11,4.99e-11
241,8.8e-11,5e-11
242,8.87e-11,4.99e-11
243,8.94e-11,5e-11
244,9.01e-11,4.94e-11
245,9.08e-11,5.04e-11
246,9.16e-11,5.04e-11
247,9.23e-11,5.09e-11
248,9.3e-11,5.08e-11
249,9.38e-11,5.08e-11
250,9.46e-11,5.07e-11
251,9.53e-11,5.07e-11
252,9.61e-11,5.08e-11
253,9.69e-11,5.08e-11
254,9.76e-11,5.12e-11
255,9.84e-11,5.12e-11
256,9.92e-11,5.14e-11
257,1e-10,5.12e-11
258,1.01e-10,5.1e-11
259,1.02e-10,5.16e-11
260,1.03e-10,5.09e-11
261,1.03e-10,5.16e-11
262,1.04e-10,5.14e-11
263,1.05e-10,5.16e-11
264,1.06e-10,5.16e-11
265,1.07e-10,5.17e-11
266,1.08e-10,5.2e-11
267,1.08e-10,5.2e-11
268,1.09e-10,5.23e-11
269,1.1e-10,5.24e-11
270,1.11e-10,5.23e-11
271,1.12e-10,5.31e-11
272,1.13e-10,5.24e-11
273,1.14e-10,5.23e-11
274,1.15e-10,5.19e-11
275,1.16e-10,5.24e-11
276,1.17e-10,5.27e-11
277,1.18e-10,5.27e-11
278,1.18e-10,5.28e-11
279,1.19e-10,5.3e-11
280,1.2e-10,5.35e-11
281,1.21e-10,5.07e-11
282,1.22e-10,5.3e-11
283,1.23e-10,5.37e-11
284,1.24e-10,5.4e-11
285,1.25e-10,5.34e-11
286,1.26e-10,5.37e-11
287,1.27e-10,5.36e-11
288,1.28e-10,5.37e-11
289,1.29e-10,5.35e-11
290,1.3e-10,5.41e-11
291,1.31e-10,5.43e-11
292,1.33e-10,5.46e-11
293,1.34e-10,5.42e-11
294,1.35e-10,5.43e-11
295,1.36e-10,5.47e-11
296,1.37e-10,5.47e-11
297,1.38e-10,5.43e-11
298,1.39e-10,5.51e-11
299,1.4e-10,5.51e-11
300,1.41e-10,5.46e-11
301,1.42e-10,5.47e-11
302,1.44e-10,5.51e-11
303,1.45e-10,5.5e-11
304,1.46e-10,5.49e-11
305,1.47e-10,5.53e-11
306,1.48e-10,5.48e-11
307,1.5e-10,5.58e-11
308,1.51e-10,5.57e-11
309,1.52e-10,5.68e-11
310,1.53e-10,5.63e-11
311,1.54e-10,5.63e-11
312,1.56e-10,5.65e-11
313,1.57e-10,5.66e-11
314,1.58e-10,5.91e-11
315,1.59e-10,5.73e-11
316,1.61e-10,5.72e-11
317,1.62e-10,5.67e-11
318,1.63e-10,5.63e-11
319,1.65e-10,5.7e-11
320,1.66e-10,5.68e-11
321,1.67e-10,5.62e-11
322,1.69e-10,5.79e-11
323,1.7e-10,5.73e-11
324,1.71e-10,5.72e-11
325,1.73e-10,5.77e-11
326,1.74e-10,5.74e-11
327,1.76e-10,5.79e-11
328,1.77e-10,5.76e-11
329,1.78e-10,5.84e-11
330,1.8e-10,5.83e-11
331,1.81e-10,5.82e-11
332,1.83e-10,5.81e-11
333,1.84e-10,5.83e-11
334,1.86e-10,5.84e-11
335,1.87e-10,5.89e-11
336,1.89e-10,5.88e-11
337,1.9e-10,5.85e-11
338,1.92e-10,5.93e-11
339,1.93e-10,5.89e-11
340,1.95e-10,5.93e-11
341,1.96e-10,5.97e-11
342,1.98e-10,5.89e-11
343,2e-10,5.9e-11
344,2.01e-10,5.98e-11
345,2.03e-10,6.03e-11
346,2.05e-10,5.94e-11
347,2.06e-10,5.99e-11
348,2.08e-10,6.01e-11
349,2.1e-10,5.97e-11
350,2.11e-10,5.99e-11
351,2.13e-10,6e-11
352,2.15e-10,6.06e-11
353,2.16e-10,6.06e-11
354,2.18e-10,6.06e-11
355,2.2e-10,6.1e-11
356,2.22e-10,6.05e-11
357,2.23e-10,6.07e-11
358,2.25e-10,6.14e-11
359,2.27e-10,6.25e-11
360,2.29e-10,6.08e-11
361,2.31e-10,6.11e-11
362,2.33e-10,5.9e-11
363,2.34e-10,6.23e-11
364,2.36e-10,6.24e-11
365,2.38e-10,6.19e-11
366,2.4e-10,6.2e-11
367,2.42e-10,6.23e-11
368,2.44e-10,6.27e-11
369,2.46e-10,6.27e-11
370,2.48e-10,6.3e-11
371,2.5e-10,6.23e-11
372,2.52e-10,6.29e-11
373,2.54e-10,6.32e-11
374,2.56e-10,6.31e-11
375,2.58e-10,6.29e-11
376,2.6e-10,6.31e-11
377,2.62e-10,6.39e-11
378,2.64e-10,6.35e-11
379,2.67e-10,6.38e-11
380,2.69e-10,6.45e-11
381,2.71e-10,6.4e-11
382,2.73e-10,6.43e-11
383,2.75e-10,6.44e-11
384,2.78e-10,6.46e-11
385,2.8e-10,6.53e-11
386,2.82e-10,6.48e-11
387,2.84e-10,6.62e-11
388,2.87e-10,7.02e-11
389,2.89e-10,7.39e-11
390,2.91e-10,7.07e-11
391,2.94e-10,6.89e-11
392,2.96e-10,6.7e-11
393,2.98e-10,7.11e-11
394,3.01e-10,6.86e-11
395,3.03e-10,6.75e-11
396,3.06e-10,6.67e-11
397,3.08e-10,6.6e-11
398,3.11e-10,6.63e-11
399,3.13e-10,6.71e-11
400,3.16e-10,6.74e-11
401,3.18e-10,6.84e-11
402,3.21e-10,6.97e-11
403,3.23e-10,6.84e-11
404,3.26e-10,6.74e-11
405,3.29e-10,6.77e-11
406,3.31e-10,6.69e-11
407,3.34e-10,6.72e-11
408,3.37e-10,6.75e-11
409,3.39e-10,6.72e-11
410,3.42e-10,6.8e-11
411,3.45e-10,6.8e-11
412,3.48e-10,6.89e-11
413,3.5e-10,7.15e-11
414,3.53e-10,7.67e-11
415,3.56e-10,7.75e-11
416,3.59e-10,7.44e-11
417,3.62e-10,7.23e-11
418,3.65e-10,7.12e-11
419,3.68e-10,7.2e-11
420,3.71e-10,7.14e-11
421,3.74e-10,7.08e-11
422,3.77e-10,7.1e-11
423,3.8e-10,1.08e-10
424,3.83e-10,7.11e-11
425,3.86e-10,6.96e-11
426,3.89e-10,6.95e-11
427,3.92e-10,7.06e-11
428,3.95e-10,6.98e-11
429,3.98e-10,7.05e-11
430,4.02e-10,7.03e-11
431,4.05e-10,7.08e-11
432,4.08e-10,7.07e-11
433,4.11e-10,7.21e-11
434,4.15e-10,7.71e-11
435,4.18e-10,7.26e-11
436,4.21e-10,7.09e-11
437,4.25e-10,7.07e-11
438,4.28e-10,7.19e-11
439,4.32e-10,7.22e-11
440,4.35e-10,7.12e-11
441,4.39e-10,7.61e-11
442,4.42e-10,7.15e-11
443,4.46e-10,7.24e-11
444,4.49e-10,7.23e-11
445,4.53e-10,7.22e-11
446,4.57e-10,7.24e-11
447,4.6e-10,7.24e-11
448,4.64e-10,7.32e-11
449,4.68e-10,7.27e-11
450,4.72e-10,7.27e-11
451,4.75e-10,7.34e-11
452,4.79e-10,7.29e-11
453,4.83e-10,7.35e-11
454,4.87e-10,7.32e-11
455,4.91e-10,7.46e-11
456,4.95e-10,7.4e-11
457,4.99e-10,7.37e-11
458,5.03e-10,7.39e-11
459,5.07e-10,7.39e-11
460,5.11e-10,7.47e-11
461,5.15e-10,7.41e-11
462,5.19e-10,7.51e-11
463,5.23e-10,7.49e-11
464,5.28e-10,7.5e-11
465,5.32e-10,7.51e-11
466,5.36e-10,7.51e-11
467,5.41e-10,7.48e-11
468,5.45e-10,7.52e-11
469,5.49e-10,7.6e-11
470,5.54e-10,7.57e-11
471,5.58e-10,7.59e-11
472,5.63e-10,7.62e-11
473,5.67e-10,7.67e-11
474,5.72e-10,7.66e-11
475,5.76e-10,7.65e-11
476,5.81e-10,7.76e-11
477,5.86e-10,7.72e-11
478,5.91e-10,7.75e-11
479,5.95e-10,7.73e-11
480,6e-10,7.69e-11
481,6.05e-10,7.81e-11
482,6.1e-10,7.78e-11
483,6.15e-10,7.73e-11
484,6.2e-10,7.8e-11
485,6.25e-10,7.83e-11
486,6.3e-10,7.74e-11
487,6.35e-10,7.88e-11
488,6.4e-10,7.86e-11
489,6.45e-10,7.85e-11
490,6.5e-10,7.86e-11
491,6.56e-10,7.82e-11
492,6.61e-10,7.91e-11
493,6.66e-10,7.9e-11
494,6.72e-10,7.86e-11
495,6.77e-10,7.98e-11
496,6.82e-10,8.04e-11
497,6.88e-10,8.01e-11
498,6.93e-10,8.04e-11
499,6.99e-10,8.03e-11
500,7.05e-10,7.98e-11
501,7.1e-10,7.98e-11
502,7.16e-10,8.03e-11
503,7.22e-10,8.02e-11
504,7.28e-10,8.09e-11
505,7.34e-10,8.12e-11
506,7.39e-10,8.22e-11
507,7.45e-10,8.11e-11
508,7.51e-10,8.14e-11
509,7.58e-10,8.2e-11
510,7.64e-10,8.15e-11
511,7.7e-10,8.36e-11
512,7.76e-10,8.21e-11
513,7.82e-10,8.22e-11
514,7.89e-10,8.18e-11
515,7.95e-10,8.37e-11
516,8.01e-10,8.25e-11
517,8.08e-10,8.29e-11
518,8.14e-10,8.21e-11
519,8.21e-10,8.33e-11
520,8.28e-10,8.35e-11
521,8.34e-10,8.29e-11
522,8.41e-10,8.26e-11
523,8.48e-10,8.44e-11
524,8.55e-10,8.46e-11
525,8.61e-10,8.48e-11
526,8.68e-10,8.36e-11
527,8.75e-10,8.48e-11
528,8.82e-10,8.44e-11
529,8.9e-10,8.58e-11
530,8.97e-10,8.55e-11
531,9.04e-10,8.57e-11
532,9.11e-10,8.48e-11
533,9.19e-10,8.55e-11
534,9.26e-10,8.61e-11
535,9.33e-10,8.54e-11
536,9.41e-10,8.6e-11
537,9.49e-10,8.63e-11
538,9.56e-10,8.65e-11
539,9.64e-10,8.61e-11
540,9.72e-10,8.64e-11
541,9.8e-10,8.69e-11
542,9.87e-10,8.71e-11
543,9.95e-10,8.76e-11
544,1e-09,8.72e-11
545,1.01e-09,8.79e-11
546,1.02e-09,8.73e-11
547,1.03e-09,8.81e-11
548,1.04e-09,8.76e-11
549,1.05e-09,8.76e-11
550,1.05e-09,8.79e-11
551,1.06e-09,8.88e-11
552,1.07e-09,8.84e-11
553,1.08e-09,8.9e-11
554,1.09e-09,8.93e-11
555,1.1e-09,8.88e-11
556,1.11e-09,8.91e-11
557,1.11e-09,8.89e-11
558,1.12e-09,8.97e-11
559,1.13e-09,9.01e-11
560,1.14e-09,8.99e-11
561,1.15e-09,9.02e-11
562,1.16e-09,9.02e-11
563,1.17e-09,9.06e-11
564,1.18e-09,9.02e-11
565,1.19e-09,9.11e-11
566,1.2e-09,9.15e-11
567,1.21e-09,9.11e-11
568,1.22e-09,9.1e-11
569,1.23e-09,9.2e-11
570,1.24e-09,9.17e-11
571,1.25e-09,9.16e-11
572,1.26e-09,9.19e-11
573,1.27e-09,9.2e-11
574,1.28e-09,9.23e-11
575,1.29e-09,9.26e-11
576,1.3e-09,9.39e-11
577,1.31e-09,9.31e-11
578,1.32e-09,9.35e-11
579,1.33e-09,9.35e-11
580,1.34e-09,9.37e-11
581,1.35e-09,9.36e-11
582,1.36e-09,9.36e-11
583,1.37e-09,9.42e-11
584,1.38e-09,9.4e-11
585,1.4e-09,9.36e-11
586,1.41e-09,9.5e-11
587,1.42e-09,9.43e-11
588,1.43e-09,9.45e-11
589,1.44e-09,9.5e-11
590,1.45e-09,9.48e-11
591,1.46e-09,9.6e-11
592,1.48e-09,9.61e-11
593,1.49e-09,9.54e-11
594,1.5e-09,9.59e-11
595,1.51e-09,9.64e-11
596,1.52e-09,9.57e-11
597,1.54e-09,9.67e-11
598,1.55e-09,9.71e-11
599,1.56e-09,9.63e-11
600,1.57e-09,9.7e-11
601,1.59e-09,9.79e-11
602,1.6e-09,9.75e-11
603,1.61e-09,9.78e-11
604,1.63e-09,9.73e-11
605,1.64e-09,9.82e-11
606,1.65e-09,9.87e-11
607,1.67e-09,9.81e-11
608,1.68e-09,9.89e-11
609,1.69e-09,9.84e-11
610,1.71e-09,9.97e-11
611,1.72e-09,1e-10
612,1.73e-09,9.98e-11
613,1.75e-09,9.95e-11
614,1.76e-09,9.97e-11
615,1.78e-09,9.97e-11
616,1.79e-09,9.91e-11
617,1.8e-09,1.01e-10
618,1.82e-09,9.99e-11
619,1.83e-09,1.01e-10
620,1.85e-09,1.01e-10
621,1.86e-09,1.02e-10
622,1.88e-09,1.01e-10
623,1.89e-09,1.02e-10
624,1.91e-09,1.02e-10
625,1.92e-09,1.03e-10
626,1.94e-09,1.02e-10
627,1.96e-09,1.03e-10
628,1.97e-09,1.03e-10
629,1.99e-09,1.02e-10
630,2e-09,1.02e-10
631,2.02e-09,1.03e-10
632,2.04e-09,1.03e-10
633,2.05e-09,1.04e-10
634,2.07e-09,1.04e-10
635,2.09e-09,1.04e-10
636,2.1e-09,1.05e-10
637,2.12e-09,1.05e-10
638,2.14e-09,1.05e-10
639,2.15e-09,1.06e-10
640,2.17e-09,1.05e-10
641,2.19e-09,1.05e-10
642,2.21e-09,1.06e-10
643,2.22e-09,1.05e-10
644,2.24e-09,1.06e-10
645,2.26e-09,1.06e-10
646,2.28e-09,1.07e-10
647,2.3e-09,1.07e-10
648,2.31e-09,1.07e-10
649,2.33e-09,1.07e-10
650,2.35e-09,1.07e-10
651,2.37e-09,1.08e-10
652,2.39e-09,1.08e-10
653,2.41e-09,1.08e-10
654,2.43e-09,1.07e-10
655,2.45e-09,1.1e-10
656,2.47e-09,1.1e-10
657,2.49e-09,1.09e-10
658,2.51e-09,1.09e-10
659,2.53e-09,1.1e-10
660,2.55e-09,1.09e-10
661,2.57e-09,1.1e-10
662,2.59e-09,1.11e-10
663,2.61e-09,1.12e-10
664,2.63e-09,1.1e-10
665,2.65e-09,1.12e-10
666,2.67e-09,1.12e-10
667,2.7e-09,1.14e-10
668,2.72e-09,1.13e-10
669,2.74e-09,1.13e-10
670,2.76e-09,1.13e-10
671,2.78e-09,1.13e-10
672,2.81e-09,1.14e-10
673,2.83e-09,1.13e-10
674,2.85e-09,1.14e-10
675,2.88e-09,1.15e-10
676,2.9e-09,1.14e-10
677,2.92e-09,1.15e-10
678,2.95e-09,1.15e-10
679,2.97e-09,1.15e-10
680,2.99e-09,1.17e-10
681,3.02e-09,1.14e-10
682,3.04e-09,1.16e-10
683,3.07e-09,1.17e-10
684,3.09e-09,1.17e-10
685,3.12e-09,1.17e-10
686,3.14e-09,1.17e-10
687,3.17e-09,1.18e-10
688,3.19e-09,1.19e-10
689,3.22e-09,1.19e-10
690,3.24e-09,1.19e-10
691,3.27e-09,1.19e-10
692,3.3e-09,1.19e-10
693,3.32e-09,1.19e-10
694,3.35e-09,1.21e-10
695,3.38e-09,1.2e-10
696,3.4e-09,1.2e-10
697,3.43e-09,1.21e-10
698,3.46e-09,1.2e-10
699,3.49e-09,1.21e-10
700,3.51e-09,1.25e-10
701,3.54e-09,1.23e-10
702,3.57e-09,1.23e-10
703,3.6e-09,1.22e-10
704,3.63e-09,1.24e-10
705,3.66e-09,1.27e-10
706,3.69e-09,2.14e-10
707,3.72e-09,1.24e-10
708,3.75e-09,1.24e-10
709,3.78e-09,1.25e-10
710,3.81e-09,1.25e-10
711,3.84e-09,1.3e-10
712,3.87e-09,1.25e-10
713,3.9e-09,1.27e-10
714,3.93e-09,1.27e-10
715,3.96e-09,1.27e-10
716,4e-09,1.28e-10
717,4.03e-09,1.28e-10
718,4.06e-09,1.28e-10
719,4.09e-09,1.29e-10
720,4.13e-09,1.31e-10
721,4.15e-09,1.31e-10
722,4.19e-09,1.3e-10
723,4.22e-09,1.3e-10
724,4.25e-09,1.31e-10
725,4.29e-09,1.31e-10
726,4.32e-09,1.31e-10
727,4.36e-09,1.33e-10
728,4.39e-09,1.32e-10
729,4.43e-09,1.34e-10
730,4.46e-09,1.34e-10
731,4.5e-09,1.34e-10
732,4.54e-09,1.34e-10
733,4.57e-09,1.36e-10
734,4.61e-09,1.36e-10
735,4.65e-09,1.36e-10
736,4.69e-09,1.36e-10
737,4.72e-09,1.37e-10
738,4.76e-09,1.39e-10
739,4.8e-09,1.37e-10
740,4.84e-09,1.38e-10
741,4.88e-09,1.38e-10
742,4.92e-09,1.39e-10
743,4.96e-09,1.4e-10
744,5e-09,1.41e-10
745,5.04e-09,1.4e-10
746,5.08e-09,1.41e-10
747,5.12e-09,1.42e-10
748,5.16e-09,1.55e-10
749,5.2e-09,1.43e-10
750,5.24e-09,1.45e-10
751,5.29e-09,1.44e-10
752,5.33e-09,1.46e-10
753,5.37e-09,1.44e-10
754,5.41e-09,1.47e-10
755,5.46e-09,1.46e-10
756,5.5e-09,1.48e-10
757,5.55e-09,1.49e-10
758,5.59e-09,1.5e-10
759,5.64e-09,1.49e-10
760,5.68e-09,1.5e-10
761,5.73e-09,1.52e-10
762,5.77e-09,1.53e-10
763,5.82e-09,1.52e-10
764,5.87e-09,1.54e-10
765,5.91e-09,1.54e-10
766,5.96e-09,1.54e-10
767,6.01e-09,1.56e-10
768,6.06e-09,1.58e-10
769,6.11e-09,1.57e-10
770,6.16e-09,1.58e-10
771,6.21e-09,1.57e-10
772,6.26e-09,1.59e-10
773,6.31e-09,1.59e-10
774,6.36e-09,1.6e-10
775,6.41e-09,1.61e-10
776,6.46e-09,1.61e-10
777,6.51e-09,1.64e-10
778,6.57e-09,1.65e-10
779,6.62e-09,1.66e-10
780,6.67e-09,1.66e-10
781,6.73e-09,1.67e-10
782,6.78e-09,1.71e-10
783,6.83e-09,1.69e-10
784,6.89e-09,1.69e-10
785,6.94e-09,1.71e-10
786,7e-09,1.71e-10
787,7.06e-09,1.73e-10
788,7.11e-09,1.75e-10
789,7.17e-09,1.75e-10
790,7.23e-09,1.77e-10
791,7.29e-09,1.77e-10
792,7.35e-09,1.88e-10
793,7.41e-09,1.79e-10
794,7.47e-09,1.81e-10
795,7.53e-09,1.82e-10
796,7.59e-09,1.83e-10
797,7.65e-09,1.84e-10
798,7.71e-09,1.9e-10
799,7.77e-09,1.97e-10
800,7.83e-09,1.95e-10
801,7.9e-09,1.91e-10
802,7.96e-09,1.9e-10
803,8.03e-09,1.92e-10
804,8.09e-09,2e-10
805,8.16e-09,1.95e-10
806,8.22e-09,2e-10
807,8.29e-09,1.96e-10
808,8.31e-09,1.97e-10
809,8.37e-09,2e-10
810,8.44e-09,2.01e-10
811,8.51e-09,2.15e-10
812,8.58e-09,2.05e-10
813,8.65e-09,2.05e-10
814,8.72e-09,2.07e-10
815,8.79e-09,2.2e-10
816,8.86e-09,2.14e-10
817,8.93e-09,2.14e-10
818,9e-09,2.23e-10
819,9.07e-09,2.17e-10
820,9.15e-09,2.2e-10
821,9.22e-09,2.21e-10
822,9.29e-09,2.38e-10
823,9.37e-09,2.27e-10
824,9.45e-09,2.28e-10
825,9.52e-09,2.5e-10
826,9.6e-09,2.32e-10
827,9.68e-09,2.33e-10
828,9.75e-09,2.36e-10
829,9.83e-09,2.49e-10
830,9.91e-09,2.54e-10
831,9.99e-09,2.43e-10
832,1.01e-08,2.44e-10
833,1.02e-08,2.64e-10
834,1.02e-08,2.48e-10
835,1.03e-08,2.63e-10
836,1.04e-08,2.53e-10
837,1.05e-08,2.53e-10
838,1.06e-08,2.63e-10
839,1.07e-08,2.59e-10
840,1.07e-08,2.76e-10
841,1.08e-08,2.69e-10
842,1.09e-08,2.69e-10
843,1.1e-08,3.16e-10
844,1.11e-08,2.79e-10
845,1.12e-08,2.76e-10
846,1.13e-08,2.93e-10
847,1.14e-08,2.93e-10
848,1.15e-08,2.84e-10
849,1.16e-08,2.89e-10
850,1.16e-08,2.88e-10
851,1.17e-08,2.97e-10
852,1.18e-08,2.99e-10
853,1.19e-08,3.05e-10
854,1.2e-08,3.15e-10
855,1.21e-08,3.15e-10
856,1.22e-08,3.13e-10
857,1.23e-08,3.22e-10
858,1.23e-08,1.0
