,m_a [eV],G_ap[GeV^-1]
0,0.00291805,1.0
1,0.00291805,7.77006e-11
2,0.00298839,7.36127e-11
3,0.00306011,6.9886e-11
4,0.0031331,6.64781e-11
5,0.00320728,6.33528e-11
6,0.00328258,6.04793e-11
7,0.0033589,5.7831e-11
8,0.00343619,5.53847e-11
9,0.00351439,5.31205e-11
10,0.00359342,5.10208e-11
11,0.00367325,4.90702e-11
12,0.0037538100000000002,4.72551e-11
13,0.00383506,4.55636e-11
14,0.00391697,4.39848e-11
15,0.003999480000000001,4.25094e-11
16,0.00408256,4.11288e-11
17,0.004166179999999999,3.98355e-11
18,0.00425031,3.86224e-11
19,0.00433492,3.74836e-11
20,0.0044199700000000005,3.64134e-11
21,0.00450544,3.54068e-11
22,0.004591319999999999,3.44593e-11
23,0.00467758,3.35665e-11
24,0.00476419,3.27249e-11
25,0.00485114,3.19309e-11
26,0.00493841,3.11813e-11
27,0.005025979999999999,3.04734e-11
28,0.0051138500000000005,2.98043e-11
29,0.00520198,2.91718e-11
30,0.00529038,2.85735e-11
31,0.00537902,2.80074e-11
32,0.0054679,2.74716e-11
33,0.005557,2.69643e-11
34,0.00564632,2.64839e-11
35,0.00573583,2.60289e-11
36,0.00582555,2.55978e-11
37,0.00591544,2.51895e-11
38,0.0060055199999999994,2.48026e-11
39,0.00609576,2.4436e-11
40,0.0061861600000000004,2.40888e-11
41,0.00627672,2.37598e-11
42,0.0063674299999999994,2.34483e-11
43,0.00645828,2.31533e-11
44,0.00654926,2.2874e-11
45,0.00664038,2.26098e-11
46,0.006731620000000001,2.23599e-11
47,0.006822969999999999,2.21236e-11
48,0.006914450000000001,2.19003e-11
49,0.00700603,2.16894e-11
50,0.00709772,2.14905e-11
51,0.00718952,2.13029e-11
52,0.00728141,2.11262e-11
53,0.0073734000000000004,2.09599e-11
54,0.00746548,2.08036e-11
55,0.00755764,2.0657e-11
56,0.00764989,2.05195e-11
57,0.007742219999999999,2.03909e-11
58,0.00783464,2.02708e-11
59,0.007927120000000001,2.01588e-11
60,0.00801968,2.00547e-11
61,0.008112310000000001,1.99582e-11
62,0.00820501,1.98689e-11
63,0.00829778,1.97867e-11
64,0.00839061,1.97112e-11
65,0.0084835,1.96423e-11
66,0.008576460000000001,1.95797e-11
67,0.00866947,1.95232e-11
68,0.00876253,1.94725e-11
69,0.008855650000000001,1.94275e-11
70,0.00894883,1.93881e-11
71,0.00904205,1.93539e-11
72,0.00913532,1.93249e-11
73,0.00922865,1.93009e-11
74,0.00932201,1.92818e-11
75,0.00941543,1.92673e-11
76,0.009508879999999999,1.92573e-11
77,0.00960238,1.92518e-11
78,0.00969593,1.92505e-11
79,0.00978951,1.92534e-11
80,0.00988313,1.92604e-11
81,0.00997678,1.92712e-11
82,0.0100705,1.92859e-11
83,0.0101642,1.93042e-11
84,0.010258,1.93262e-11
85,0.010351800000000001,1.93517e-11
86,0.010445600000000001,1.93806e-11
87,0.0105395,1.94128e-11
88,0.0106334,1.94483e-11
89,0.0107273,1.94869e-11
90,0.0108212,1.95286e-11
91,0.0109152,1.95733e-11
92,0.0110092,1.96209e-11
93,0.0111033,1.96714e-11
94,0.0111974,1.97247e-11
95,0.0112914,1.97807e-11
96,0.011385600000000001,1.98394e-11
97,0.011479699999999999,1.99006e-11
98,0.0115739,1.99645e-11
99,0.0116681,2.00308e-11
100,0.0117623,2.00995e-11
101,0.0118565,2.01706e-11
102,0.0119508,2.02441e-11
103,0.0120451,2.03198e-11
104,0.0121394,2.03978e-11
105,0.0122337,2.0478e-11
106,0.012327999999999999,2.05603e-11
107,0.0124224,2.06447e-11
108,0.0125168,2.07311e-11
109,0.0126112,2.08196e-11
110,0.012705600000000001,2.091e-11
111,0.0128,2.10024e-11
112,0.012894500000000001,2.10967e-11
113,0.0129889,2.11929e-11
114,0.013083399999999999,2.12909e-11
115,0.0131779,2.13907e-11
116,0.0132724,2.14923e-11
117,0.013367,2.15957e-11
118,0.0134615,2.17007e-11
119,0.013556100000000001,2.18074e-11
120,0.0136507,2.19158e-11
121,0.0137453,2.20258e-11
122,0.0138399,2.21374e-11
123,0.0139345,2.22505e-11
124,0.0140291,2.23653e-11
125,0.014123799999999999,2.24815e-11
126,0.0142184,2.25992e-11
127,0.0143131,2.27184e-11
128,0.0144078,2.28391e-11
129,0.0145025,2.29612e-11
130,0.014597200000000001,2.30847e-11
131,0.0146919,2.32096e-11
132,0.0147866,2.33359e-11
133,0.0148814,2.34635e-11
134,0.014976100000000001,2.35924e-11
135,0.0150709,2.37227e-11
136,0.015165699999999999,2.38542e-11
137,0.0152605,2.3987e-11
138,0.0153553,2.41211e-11
139,0.015450100000000001,2.42565e-11
140,0.0155449,2.4393e-11
141,0.0156397,2.45308e-11
142,0.0157346,2.46697e-11
143,0.0158294,2.48099e-11
144,0.0159243,2.49512e-11
145,0.0160191,2.50936e-11
146,0.016114,2.52372e-11
147,0.0162089,2.5382e-11
148,0.0163038,2.55278e-11
149,0.016398700000000002,2.56747e-11
150,0.0164936,2.58227e-11
151,0.0165885,2.59718e-11
152,0.016683399999999998,2.61219e-11
153,0.016778400000000002,2.62731e-11
154,0.0168733,2.64253e-11
155,0.0169682,2.65786e-11
156,0.017063199999999997,2.67329e-11
157,0.017158200000000002,2.68881e-11
158,0.0172531,2.70444e-11
159,0.017348099999999998,2.72016e-11
160,0.0174431,2.73598e-11
161,0.0175381,2.7519e-11
162,0.0176331,2.76792e-11
163,0.0177281,2.78402e-11
164,0.0178231,2.80022e-11
165,0.0179181,2.81652e-11
166,0.0180131,2.8329e-11
167,0.0181082,2.84938e-11
168,0.0182032,2.86594e-11
169,0.0182982,2.8826e-11
170,0.0183933,2.89934e-11
171,0.0184883,2.91617e-11
172,0.0185834,2.93309e-11
173,0.0186785,2.95009e-11
174,0.0187735,2.96718e-11
175,0.0188686,2.98436e-11
176,0.0189637,3.00161e-11
177,0.0190588,3.01895e-11
178,0.0191539,3.03638e-11
179,0.019249,3.05388e-11
180,0.0193441,3.07146e-11
181,0.0194392,3.08913e-11
182,0.0195343,3.10688e-11
183,0.0196294,3.1247e-11
184,0.0197245,3.1426e-11
185,0.019819700000000003,3.16058e-11
186,0.0199148,3.17864e-11
187,0.020009899999999997,3.19678e-11
188,0.0201051,3.21499e-11
189,0.020200199999999998,3.23327e-11
190,0.0202954,3.25164e-11
191,0.0203905,3.27007e-11
192,0.020485700000000003,3.28858e-11
193,0.0205808,3.30716e-11
194,0.020676,3.32582e-11
195,0.0207712,3.34455e-11
196,0.0208664,3.36335e-11
197,0.0209615,3.38222e-11
198,0.021056699999999998,3.40117e-11
199,0.0211519,3.42018e-11
200,0.021247099999999998,3.43926e-11
201,0.021247099999999998,1.0
